-4.995 	400 	1.44004e-11 	100000
-4.985 	400 	1.29075e-11 	100000
-4.975 	400 	1.51802e-11 	100000
-4.965 	400 	1.34276e-11 	100000
-4.955 	400 	1.3899e-11 	100000
-4.945 	400 	1.32493e-11 	100000
-4.935 	400 	1.22494e-11 	100000
-4.925 	400 	1.30566e-11 	100000
-4.915 	400 	1.33614e-11 	100000
-4.905 	400 	1.60316e-11 	100000
-4.895 	400 	1.33498e-11 	100000
-4.885 	400 	1.29421e-11 	100000
-4.875 	400 	1.09202e-11 	100000
-4.865 	400 	1.25589e-11 	100000
-4.855 	400 	8.04516e-12 	100000
-4.845 	400 	1.0626e-11 	100000
-4.835 	400 	8.48235e-12 	100000
-4.825 	400 	9.14451e-12 	100000
-4.815 	400 	5.02717e-12 	100000
-4.805 	400 	9.15816e-12 	100000
-4.795 	400 	4.97819e-12 	100000
-4.785 	400 	9.26989e-12 	100000
-4.775 	400 	6.43163e-12 	100000
-4.765 	400 	1.04493e-11 	100000
-4.755 	400 	9.47273e-12 	100000
-4.745 	400 	1.36744e-11 	100000
-4.735 	400 	1.18939e-11 	100000
-4.725 	400 	1.36179e-11 	100000
-4.715 	400 	1.37324e-11 	100000
-4.705 	400 	1.4162e-11 	100000
-4.695 	400 	1.44754e-11 	100000
-4.685 	400 	1.52896e-11 	100000
-4.675 	400 	1.66595e-11 	100000
-4.665 	400 	1.49261e-11 	100000
-4.655 	400 	1.78537e-11 	100000
-4.645 	400 	1.60798e-11 	100000
-4.635 	400 	2.00095e-11 	100000
-4.625 	400 	1.6287e-11 	100000
-4.615 	400 	1.86304e-11 	100000
-4.605 	400 	1.53038e-11 	100000
-4.595 	400 	1.83266e-11 	100000
-4.585 	400 	1.52965e-11 	100000
-4.575 	400 	1.49064e-11 	100000
-4.565 	400 	1.01869e-11 	100000
-4.555 	400 	1.27572e-11 	100000
-4.545 	400 	8.27629e-12 	100000
-4.535 	400 	1.06952e-11 	100000
-4.525 	400 	8.78215e-12 	100000
-4.515 	400 	1.18095e-11 	100000
-4.505 	400 	6.61586e-12 	100000
-4.495 	400 	1.03155e-11 	100000
-4.485 	400 	2.71856e-12 	100000
-4.475 	400 	6.35048e-12 	100000
-4.465 	400 	3.26112e-12 	100000
-4.455 	400 	3.36354e-12 	100000
-4.445 	400 	2.71646e-12 	100000
-4.435 	400 	1.36366e-12 	100000
-4.425 	400 	1.55942e-12 	100000
-4.415 	400 	6.43311e-14 	100000
-4.405 	400 	4.53364e-12 	100000
-4.395 	400 	1.7854e-12 	100000
-4.385 	400 	6.9048e-13 	100000
-4.375 	400 	5.00386e-12 	100000
-4.365 	400 	3.42502e-12 	100000
-4.355 	400 	6.37386e-12 	100000
-4.345 	400 	2.45995e-12 	100000
-4.335 	400 	6.15096e-12 	100000
-4.325 	400 	3.69471e-12 	100000
-4.315 	400 	8.24055e-12 	100000
-4.305 	400 	4.45935e-12 	100000
-4.295 	400 	9.87697e-12 	100000
-4.285 	400 	5.15151e-12 	100000
-4.275 	400 	5.87655e-12 	100000
-4.265 	400 	3.35421e-12 	100000
-4.255 	400 	8.80494e-12 	100000
-4.245 	400 	3.59083e-12 	100000
-4.235 	400 	8.14081e-12 	100000
-4.225 	400 	5.47e-12 	100000
-4.215 	400 	8.72027e-12 	100000
-4.205 	400 	6.55467e-12 	100000
-4.195 	400 	7.79033e-12 	100000
-4.185 	400 	7.85574e-12 	100000
-4.175 	400 	7.48605e-12 	100000
-4.165 	400 	1.02784e-11 	100000
-4.155 	400 	8.14887e-12 	100000
-4.145 	400 	1.17043e-11 	100000
-4.135 	400 	8.10205e-12 	100000
-4.125 	400 	1.23768e-11 	100000
-4.115 	400 	8.13702e-12 	100000
-4.105 	400 	1.11771e-11 	100000
-4.095 	400 	1.13196e-11 	100000
-4.085 	400 	1.60829e-11 	100000
-4.075 	400 	1.09697e-11 	100000
-4.065 	400 	1.46656e-11 	100000
-4.055 	400 	1.05247e-11 	100000
-4.045 	400 	1.17451e-11 	100000
-4.035 	400 	9.35644e-12 	100000
-4.025 	400 	1.1334e-11 	100000
-4.015 	400 	1.15892e-11 	100000
-4.005 	400 	1.45846e-11 	100000
-3.995 	400 	1.35155e-11 	100000
-3.985 	400 	1.55406e-11 	100000
-3.975 	400 	1.55238e-11 	100000
-3.965 	400 	1.33923e-11 	100000
-3.955 	400 	1.46542e-11 	100000
-3.945 	400 	1.57615e-11 	100000
-3.935 	400 	1.30702e-11 	100000
-3.925 	400 	1.17975e-11 	100000
-3.915 	400 	1.00069e-11 	100000
-3.905 	400 	1.14491e-11 	100000
-3.895 	400 	1.26995e-11 	100000
-3.885 	400 	1.06137e-11 	100000
-3.875 	400 	8.89391e-12 	100000
-3.865 	400 	5.95919e-12 	100000
-3.855 	400 	7.59337e-12 	100000
-3.845 	400 	6.30223e-12 	100000
-3.835 	400 	8.097e-12 	100000
-3.825 	400 	8.4951e-12 	100000
-3.815 	400 	1.20067e-11 	100000
-3.805 	400 	1.0709e-11 	100000
-3.795 	400 	1.20034e-11 	100000
-3.785 	400 	1.18115e-11 	100000
-3.775 	400 	1.0499e-11 	100000
-3.765 	400 	1.17429e-11 	100000
-3.755 	400 	1.24836e-11 	100000
-3.745 	400 	1.18778e-11 	100000
-3.735 	400 	1.32838e-11 	100000
-3.725 	400 	1.43798e-11 	100000
-3.715 	400 	1.36518e-11 	100000
-3.705 	400 	1.70301e-11 	100000
-3.695 	400 	1.46915e-11 	100000
-3.685 	400 	1.2884e-11 	100000
-3.675 	400 	1.22925e-11 	100000
-3.665 	400 	1.16068e-11 	100000
-3.655 	400 	1.33486e-11 	100000
-3.645 	400 	1.36168e-11 	100000
-3.635 	400 	1.30406e-11 	100000
-3.625 	400 	1.40368e-11 	100000
-3.615 	400 	1.29854e-11 	100000
-3.605 	400 	1.56624e-11 	100000
-3.595 	400 	1.6365e-11 	100000
-3.585 	400 	1.62304e-11 	100000
-3.575 	400 	1.60932e-11 	100000
-3.565 	400 	1.74053e-11 	100000
-3.555 	400 	1.79771e-11 	100000
-3.545 	400 	1.97349e-11 	100000
-3.535 	400 	2.00904e-11 	100000
-3.525 	400 	1.83326e-11 	100000
-3.515 	400 	1.9557e-11 	100000
-3.505 	400 	1.9449e-11 	100000
-3.495 	400 	2.05359e-11 	100000
-3.485 	400 	2.18503e-11 	100000
-3.475 	400 	2.21508e-11 	100000
-3.465 	400 	1.90029e-11 	100000
-3.455 	400 	2.22472e-11 	100000
-3.445 	400 	2.15794e-11 	100000
-3.435 	400 	2.00415e-11 	100000
-3.425 	400 	1.90933e-11 	100000
-3.415 	400 	1.91878e-11 	100000
-3.405 	400 	2.63637e-11 	100000
-3.395 	400 	3.63346e-11 	100000
-3.385 	400 	5.72914e-11 	100000
-3.375 	400 	9.71304e-11 	100000
-3.365 	400 	1.74238e-10 	100000
-3.355 	400 	3.23557e-10 	100000
-3.345 	400 	6.11362e-10 	100000
-3.335 	400 	1.16232e-09 	100000
-3.325 	400 	2.2032e-09 	100000
-3.315 	400 	4.15434e-09 	100000
-3.305 	400 	7.78909e-09 	100000
-3.295 	400 	1.45155e-08 	100000
-3.285 	400 	2.68814e-08 	100000
-3.275 	400 	4.94653e-08 	100000
-3.265 	400 	9.04383e-08 	100000
-3.255 	400 	1.64272e-07 	100000
-3.245 	400 	2.96423e-07 	100000
-3.235 	400 	5.31323e-07 	100000
-3.225 	400 	9.45956e-07 	100000
-3.215 	400 	1.67265e-06 	100000
-3.205 	400 	2.93712e-06 	100000
-3.195 	400 	5.12125e-06 	100000
-3.185 	400 	8.86585e-06 	100000
-3.175 	400 	1.52373e-05 	100000
-3.165 	400 	2.59947e-05 	100000
-3.155 	400 	4.40152e-05 	100000
-3.145 	400 	7.3961e-05 	100000
-3.135 	400 	0.000123318 	100000
-3.125 	400 	0.000203992 	99999.9
-3.115 	400 	0.000334733 	99999.9
-3.105 	400 	0.00054477 	99999.8
-3.095 	400 	0.000879196 	99999.7
-3.085 	399.999 	0.00140682 	99999.5
-3.075 	399.999 	0.00223147 	99999.2
-3.065 	399.999 	0.00350799 	99998.8
-3.055 	399.998 	0.00546444 	99998.1
-3.045 	399.997 	0.00843254 	99997.1
-3.035 	399.995 	0.0128881 	99995.5
-3.025 	399.992 	0.0195043 	99993.3
-3.015 	399.988 	0.0292185 	99989.9
-3.005 	399.983 	0.043316 	99985
-2.995 	399.975 	0.0635279 	99978
-2.985 	399.963 	0.0921428 	99968.1
-2.975 	399.948 	0.132125 	99954.2
-2.965 	399.926 	0.187231 	99935.1
-2.955 	399.896 	0.2621 	99909.1
-2.945 	399.856 	0.362306 	99874.3
-2.935 	399.803 	0.494338 	99828.4
-2.925 	399.735 	0.665461 	99768.9
-2.915 	399.648 	0.883449 	99693.1
-2.905 	399.539 	1.15611 	99598.3
-2.895 	399.406 	1.49059 	99481.9
-2.885 	399.245 	1.89236 	99342.1
-2.875 	399.056 	2.36368 	99178.1
-2.865 	398.84 	2.90224 	98990.7
-2.855 	398.6 	3.50208 	98782.4
-2.845 	398.338 	4.15642 	98555.8
-2.835 	398.057 	4.85949 	98312.9
-2.825 	397.758 	5.60653 	98055.5
-2.815 	397.444 	6.39331 	97785.1
-2.805 	397.116 	7.21587 	97503.2
-2.795 	396.775 	8.0705 	97211.1
-2.785 	396.423 	8.95372 	96910
-2.775 	396.061 	9.86233 	96601.2
-2.765 	395.69 	10.7934 	96285.7
-2.755 	395.312 	11.7444 	95964.4
-2.745 	394.927 	12.713 	95638.2
-2.735 	394.536 	13.6973 	95307.7
-2.725 	394.139 	14.6953 	94973.6
-2.715 	393.738 	15.7057 	94636.4
-2.705 	393.333 	16.727 	94296.7
-2.695 	392.925 	17.7582 	93954.8
-2.685 	392.513 	18.7983 	93611
-2.675 	392.098 	19.8463 	93265.8
-2.665 	391.68 	20.9015 	92919.3
-2.655 	391.261 	21.9632 	92571.8
-2.645 	390.839 	23.0309 	92223.5
-2.635 	390.415 	24.1041 	91874.6
-2.625 	389.989 	25.1823 	91525.2
-2.615 	389.562 	26.265 	91175.5
-2.605 	389.134 	27.3521 	90825.6
-2.595 	388.704 	28.443 	90475.6
-2.585 	388.273 	29.5376 	90125.7
-2.575 	387.841 	30.6356 	89775.8
-2.565 	387.409 	31.7367 	89426.1
-2.555 	386.975 	32.8408 	89076.7
-2.545 	386.54 	33.9477 	88727.5
-2.535 	386.105 	35.0572 	88378.8
-2.525 	385.669 	36.1691 	88030.5
-2.515 	385.232 	37.2833 	87682.6
-2.505 	384.794 	38.3996 	87335.3
-2.495 	384.357 	39.518 	86988.6
-2.485 	383.918 	40.6383 	86642.4
-2.475 	383.48 	41.7604 	86296.9
-2.465 	383.04 	42.8843 	85952
-2.455 	382.601 	44.0098 	85607.9
-2.445 	382.161 	45.1369 	85264.4
-2.435 	381.721 	46.2654 	84921.7
-2.425 	381.28 	47.3953 	84579.7
-2.415 	380.839 	48.5266 	84238.6
-2.405 	380.398 	49.6591 	83898.2
-2.395 	379.957 	50.7929 	83558.7
-2.385 	379.516 	51.9278 	83220
-2.375 	379.074 	53.0638 	82882.2
-2.365 	378.632 	54.2008 	82545.2
-2.355 	378.191 	55.3389 	82209.2
-2.345 	377.749 	56.4779 	81874
-2.335 	377.307 	57.6178 	81539.8
-2.325 	376.865 	58.7585 	81206.4
-2.315 	376.423 	59.9001 	80874
-2.305 	375.98 	61.0424 	80542.6
-2.295 	375.538 	62.1855 	80212.1
-2.285 	375.096 	63.3293 	79882.5
-2.275 	374.654 	64.4738 	79553.9
-2.265 	374.212 	65.6189 	79226.3
-2.255 	373.769 	66.7647 	78899.7
-2.245 	373.327 	67.9109 	78574.1
-2.235 	372.885 	69.0578 	78249.5
-2.225 	372.443 	70.2051 	77925.9
-2.215 	372.001 	71.353 	77603.3
-2.205 	371.559 	72.5012 	77281.7
-2.195 	371.118 	73.6499 	76961.2
-2.185 	370.676 	74.799 	76641.7
-2.175 	370.234 	75.9485 	76323.2
-2.165 	369.793 	77.0983 	76005.8
-2.155 	369.352 	78.2485 	75689.4
-2.145 	368.911 	79.3989 	75374
-2.135 	368.47 	80.5496 	75059.7
-2.125 	368.029 	81.7006 	74746.5
-2.115 	367.588 	82.8517 	74434.3
-2.105 	367.148 	84.0031 	74123.2
-2.095 	366.708 	85.1546 	73813.1
-2.085 	366.268 	86.3063 	73504.1
-2.075 	365.828 	87.4581 	73196.2
-2.065 	365.388 	88.6101 	72889.4
-2.055 	364.949 	89.7621 	72583.7
-2.045 	364.51 	90.9141 	72279
-2.035 	364.071 	92.0662 	71975.4
-2.025 	363.632 	93.2183 	71672.9
-2.015 	363.194 	94.3704 	71371.5
-2.005 	362.756 	95.5225 	71071.2
-1.995 	362.318 	96.6745 	70772
-1.985 	361.881 	97.8265 	70473.9
-1.975 	361.444 	98.9783 	70176.9
-1.965 	361.007 	100.13 	69881
-1.955 	360.57 	101.282 	69586.2
-1.945 	360.134 	102.433 	69292.5
-1.935 	359.698 	103.584 	68999.9
-1.925 	359.262 	104.735 	68708.5
-1.915 	358.827 	105.886 	68418.1
-1.905 	358.392 	107.036 	68128.9
-1.895 	357.958 	108.186 	67840.8
-1.885 	357.524 	109.336 	67553.8
-1.875 	357.09 	110.486 	67267.9
-1.865 	356.657 	111.635 	66983.2
-1.855 	356.224 	112.784 	66699.6
-1.845 	355.791 	113.932 	66417.1
-1.835 	355.359 	115.08 	66135.8
-1.825 	354.928 	116.227 	65855.6
-1.815 	354.497 	117.374 	65576.5
-1.805 	354.066 	118.52 	65298.6
-1.795 	353.636 	119.666 	65021.9
-1.785 	353.206 	120.811 	64746.3
-1.775 	352.777 	121.956 	64471.8
-1.765 	352.348 	123.099 	64198.5
-1.755 	351.92 	124.242 	63926.4
-1.745 	351.492 	125.385 	63655.4
-1.735 	351.065 	126.526 	63385.6
-1.725 	350.639 	127.667 	63117
-1.715 	350.213 	128.806 	62849.6
-1.705 	349.788 	129.945 	62583.4
-1.695 	349.363 	131.083 	62318.3
-1.685 	348.939 	132.22 	62054.5
-1.675 	348.516 	133.356 	61791.8
-1.665 	348.093 	134.49 	61530.4
-1.655 	347.671 	135.624 	61270.2
-1.645 	347.25 	136.756 	61011.2
-1.635 	346.829 	137.887 	60753.4
-1.625 	346.409 	139.016 	60496.9
-1.615 	345.99 	140.144 	60241.6
-1.605 	345.572 	141.271 	59987.6
-1.595 	345.155 	142.396 	59734.9
-1.585 	344.738 	143.519 	59483.5
-1.575 	344.323 	144.64 	59233.3
-1.565 	343.908 	145.76 	58984.5
-1.555 	343.494 	146.878 	58736.9
-1.545 	343.082 	147.994 	58490.7
-1.535 	342.67 	149.107 	58245.9
-1.525 	342.259 	150.219 	58002.4
-1.515 	341.85 	151.328 	57760.3
-1.505 	341.442 	152.435 	57519.6
-1.495 	341.035 	153.539 	57280.3
-1.485 	340.629 	154.64 	57042.5
-1.475 	340.224 	155.738 	56806.1
-1.465 	339.821 	156.834 	56571.2
-1.455 	339.419 	157.926 	56337.8
-1.445 	339.019 	159.015 	56106
-1.435 	338.62 	160.1 	55875.7
-1.425 	338.223 	161.181 	55647
-1.415 	337.827 	162.259 	55420
-1.405 	337.434 	163.332 	55194.6
-1.395 	337.042 	164.401 	54970.9
-1.385 	336.652 	165.466 	54749
-1.375 	336.264 	166.525 	54528.9
-1.365 	335.879 	167.579 	54310.6
-1.355 	335.495 	168.627 	54094.2
-1.345 	335.114 	169.67 	53879.8
-1.335 	334.736 	170.706 	53667.3
-1.325 	334.359 	171.735 	53457
-1.315 	333.989 	172.758 	53248.8
-1.305 	333.614 	173.772 	53042.8
-1.295 	333.256 	174.779 	52839.1
-1.285 	332.877 	175.777 	52637.8
-1.275 	332.541 	176.766 	52439
-1.265 	332.149 	177.746 	52242.7
-1.255 	331.849 	178.715 	52049.2
-1.245 	331.429 	179.673 	51858.4
-1.235 	331.177 	180.619 	51670.7
-1.225 	330.731 	181.552 	51485.8
-1.215 	330.512 	182.472 	51304.3
-1.205 	330.075 	183.378 	51126
-1.195 	329.838 	184.268 	50951.4
-1.185 	329.476 	185.143 	50780.3
-1.175 	329.161 	185.999 	50613.1
-1.165 	328.913 	186.838 	50450
-1.155 	328.529 	187.656 	50291
-1.145 	328.332 	188.454 	50136.7
-1.135 	327.992 	189.229 	49986.9
-1.125 	327.726 	189.98 	49842
-1.115 	327.517 	190.707 	49702.4
-1.105 	327.179 	191.407 	49568
-1.095 	327.014 	192.079 	49439.3
-1.085 	326.753 	192.722 	49316.3
-1.075 	326.501 	193.334 	49199.5
-1.065 	326.366 	193.914 	49088.9
-1.055 	326.099 	194.461 	48984.8
-1.045 	325.941 	194.974 	48887.3
-1.035 	325.802 	195.451 	48796.6
-1.025 	325.58 	195.893 	48712.8
-1.015 	325.484 	196.298 	48636.1
-1.005 	325.351 	196.666 	48566.2
-0.995 	325.192 	196.998 	48503.2
-0.985 	325.132 	197.294 	48447.2
-0.975 	325.025 	197.555 	48397.6
-0.965 	324.921 	197.782 	48354.6
-0.955 	324.886 	197.976 	48317.6
-0.945 	324.815 	198.14 	48286.3
-0.935 	324.752 	198.277 	48260.4
-0.925 	324.734 	198.387 	48239.3
-0.915 	324.698 	198.475 	48222.4
-0.905 	324.664 	198.543 	48209.5
-0.895 	324.657 	198.593 	48199.9
-0.885 	324.645 	198.628 	48192.7
-0.875 	324.63 	198.652 	48188.2
-0.865 	324.628 	198.667 	48185.4
-0.855 	324.628 	198.674 	48183.8
-0.845 	324.627 	198.676 	48183.4
-0.835 	324.626 	198.676 	48183.4
-0.825 	324.627 	198.676 	48183.5
-0.815 	324.629 	198.676 	48183.7
-0.805 	324.63 	198.674 	48184.1
-0.795 	324.631 	198.669 	48184.7
-0.785 	324.634 	198.661 	48186
-0.775 	324.639 	198.65 	48187.9
-0.765 	324.643 	198.639 	48189.9
-0.755 	324.646 	198.629 	48191.7
-0.745 	324.651 	198.62 	48193.4
-0.735 	324.653 	198.613 	48194.9
-0.725 	324.655 	198.607 	48196
-0.715 	324.658 	198.602 	48196.8
-0.705 	324.659 	198.599 	48197.5
-0.695 	324.66 	198.596 	48198
-0.685 	324.662 	198.594 	48198.3
-0.675 	324.663 	198.593 	48198.6
-0.665 	324.663 	198.592 	48198.8
-0.655 	324.664 	198.591 	48198.9
-0.645 	324.665 	198.59 	48199.1
-0.635 	324.665 	198.59 	48199.2
-0.625 	324.666 	198.589 	48199.3
-0.615 	324.667 	198.589 	48199.4
-0.605 	324.668 	198.588 	48199.5
-0.595 	324.668 	198.587 	48199.6
-0.585 	324.669 	198.587 	48199.7
-0.575 	324.67 	198.586 	48199.8
-0.565 	324.67 	198.585 	48199.9
-0.555 	324.671 	198.585 	48200
-0.545 	324.672 	198.584 	48200.1
-0.535 	324.672 	198.584 	48200.2
-0.525 	324.673 	198.583 	48200.3
-0.515 	324.674 	198.583 	48200.4
-0.505 	324.674 	198.582 	48200.5
-0.495 	324.675 	198.581 	48200.6
-0.485 	324.676 	198.581 	48200.7
-0.475 	324.676 	198.58 	48200.8
-0.465 	324.677 	198.58 	48200.9
-0.455 	324.678 	198.579 	48201
-0.445 	324.679 	198.579 	48201.1
-0.435 	324.679 	198.578 	48201.1
-0.425 	324.68 	198.578 	48201.2
-0.415 	324.681 	198.577 	48201.3
-0.405 	324.681 	198.576 	48201.4
-0.395 	324.682 	198.576 	48201.5
-0.385 	324.683 	198.575 	48201.6
-0.375 	324.684 	198.575 	48201.7
-0.365 	324.685 	198.575 	48201.8
-0.355 	324.686 	198.574 	48201.8
-0.345 	324.686 	198.574 	48201.9
-0.335 	324.687 	198.573 	48202
-0.325 	324.688 	198.573 	48202.1
-0.315 	324.689 	198.572 	48202.1
-0.305 	324.689 	198.572 	48202.2
-0.295 	324.69 	198.571 	48202.3
-0.285 	324.691 	198.571 	48202.4
-0.275 	324.692 	198.57 	48202.5
-0.265 	324.692 	198.57 	48202.5
-0.255 	324.693 	198.569 	48202.6
-0.245 	324.694 	198.569 	48202.7
-0.235 	324.695 	198.568 	48202.8
-0.225 	324.696 	198.568 	48202.8
-0.215 	324.697 	198.567 	48202.9
-0.205 	324.698 	198.567 	48203
-0.195 	324.699 	198.566 	48203.1
-0.185 	324.699 	198.566 	48203.2
-0.175 	324.701 	198.565 	48203.2
-0.165 	324.701 	198.565 	48203.3
-0.155 	324.702 	198.564 	48203.4
-0.145 	324.703 	198.564 	48203.5
-0.135 	324.704 	198.563 	48203.5
-0.125 	324.705 	198.563 	48203.6
-0.115 	324.706 	198.563 	48203.7
-0.105 	324.707 	198.562 	48203.8
-0.095 	324.708 	198.562 	48203.8
-0.085 	324.709 	198.561 	48203.9
-0.075 	324.71 	198.561 	48203.9
-0.065 	324.711 	198.561 	48204
-0.055 	324.712 	198.56 	48204.1
-0.045 	324.713 	198.56 	48204.1
-0.035 	324.714 	198.56 	48204.2
-0.025 	324.715 	198.559 	48204.2
-0.015 	324.716 	198.559 	48204.2
-0.005 	324.717 	198.559 	48204.3
0.005 	324.718 	198.558 	48204.3
0.015 	324.719 	198.558 	48204.4
0.025 	324.72 	198.558 	48204.4
0.035 	324.721 	198.558 	48204.4
0.045 	324.722 	198.557 	48204.4
0.055 	324.723 	198.557 	48204.5
0.065 	324.725 	198.557 	48204.5
0.075 	324.726 	198.557 	48204.5
0.085 	324.726 	198.557 	48204.5
0.095 	324.728 	198.556 	48204.6
0.105 	324.729 	198.556 	48204.6
0.115 	324.73 	198.556 	48204.6
0.125 	324.731 	198.556 	48204.6
0.135 	324.732 	198.556 	48204.6
0.145 	324.734 	198.556 	48204.6
0.155 	324.735 	198.555 	48204.7
0.165 	324.736 	198.555 	48204.7
0.175 	324.737 	198.555 	48204.7
0.185 	324.739 	198.555 	48204.7
0.195 	324.741 	198.555 	48204.7
0.205 	324.742 	198.555 	48204.7
0.215 	324.742 	198.555 	48204.7
0.225 	324.744 	198.554 	48204.8
0.235 	324.746 	198.554 	48204.8
0.245 	324.748 	198.554 	48204.8
0.255 	324.748 	198.554 	48204.8
0.265 	324.75 	198.554 	48204.8
0.275 	324.752 	198.553 	48204.9
0.285 	324.754 	198.553 	48204.9
0.295 	324.755 	198.553 	48204.9
0.305 	324.756 	198.553 	48204.9
0.315 	324.758 	198.553 	48205
0.325 	324.76 	198.552 	48205
0.335 	324.762 	198.552 	48205
0.345 	324.763 	198.552 	48205
0.355 	324.764 	198.552 	48205.1
0.365 	324.767 	198.552 	48205.1
0.375 	324.769 	198.551 	48205.1
0.385 	324.77 	198.551 	48205.1
0.395 	324.772 	198.551 	48205.1
0.405 	324.774 	198.551 	48205.2
0.415 	324.777 	198.551 	48205.2
0.425 	324.779 	198.55 	48205.2
0.435 	324.78 	198.55 	48205.2
0.445 	324.781 	198.55 	48205.2
0.455 	324.784 	198.55 	48205.2
0.465 	324.787 	198.55 	48205.3
0.475 	324.789 	198.549 	48205.3
0.485 	324.79 	198.549 	48205.3
0.495 	324.792 	198.549 	48205.3
0.505 	324.795 	198.549 	48205.3
0.515 	324.799 	198.549 	48205.3
0.525 	324.801 	198.549 	48205.3
0.535 	324.803 	198.549 	48205.3
0.545 	324.804 	198.548 	48205.3
0.555 	324.807 	198.548 	48205.4
0.565 	324.811 	198.548 	48205.4
0.575 	324.815 	198.548 	48205.4
0.585 	324.817 	198.548 	48205.4
0.595 	324.818 	198.548 	48205.4
0.605 	324.82 	198.548 	48205.4
0.615 	324.824 	198.547 	48205.4
0.625 	324.829 	198.547 	48205.4
0.635 	324.832 	198.547 	48205.5
0.645 	324.834 	198.547 	48205.5
0.655 	324.836 	198.547 	48205.5
0.665 	324.839 	198.547 	48205.5
0.675 	324.844 	198.547 	48205.5
0.685 	324.849 	198.547 	48205.5
0.695 	324.854 	198.546 	48205.5
0.705 	324.856 	198.546 	48205.6
0.715 	324.858 	198.546 	48205.6
0.725 	324.86 	198.546 	48205.6
0.735 	324.865 	198.546 	48205.6
0.745 	324.871 	198.546 	48205.6
0.755 	324.878 	198.545 	48205.6
0.765 	324.883 	198.545 	48205.6
0.775 	324.886 	198.545 	48205.6
0.785 	324.887 	198.545 	48205.6
0.795 	324.89 	198.545 	48205.6
0.805 	324.896 	198.545 	48205.6
0.815 	324.904 	198.545 	48205.6
0.825 	324.913 	198.544 	48205.6
0.835 	324.919 	198.544 	48205.7
0.845 	324.922 	198.544 	48205.7
0.855 	324.924 	198.544 	48205.7
0.865 	324.927 	198.544 	48205.7
0.875 	324.934 	198.544 	48205.7
0.885 	324.945 	198.543 	48205.7
0.895 	324.956 	198.543 	48205.7
0.905 	324.965 	198.543 	48205.7
0.915 	324.969 	198.543 	48205.7
0.925 	324.971 	198.543 	48205.7
0.935 	324.975 	198.543 	48205.7
0.945 	324.983 	198.543 	48205.7
0.955 	324.997 	198.542 	48205.6
0.965 	325.012 	198.542 	48205.7
0.975 	325.025 	198.542 	48205.9
0.985 	325.032 	198.542 	48205.9
0.995 	325.035 	198.542 	48205.7
1.005 	325.038 	198.541 	48205.6
1.015 	325.046 	198.541 	48205.7
1.025 	325.064 	198.541 	48205.7
1.035 	325.085 	198.541 	48205.7
1.045 	325.105 	198.541 	48205.7
1.055 	325.118 	198.541 	48205.7
1.065 	325.125 	198.541 	48205.7
1.075 	325.129 	198.541 	48205.7
1.085 	325.134 	198.541 	48205.7
1.095 	325.147 	198.541 	48205.8
1.105 	325.177 	198.54 	48205.7
1.115 	325.212 	198.54 	48205.7
1.125 	325.245 	198.54 	48205.7
1.135 	325.272 	198.54 	48205.7
1.145 	325.29 	198.54 	48205.7
1.155 	325.299 	198.54 	48205.7
1.165 	325.304 	198.539 	48205.8
1.175 	325.31 	198.54 	48205.8
1.185 	325.326 	198.54 	48205.8
1.195 	325.376 	198.54 	48205.7
1.205 	325.464 	198.54 	48205.7
1.215 	325.551 	198.539 	48205.7
1.225 	325.626 	198.539 	48205.7
1.235 	325.683 	198.538 	48205.8
1.245 	325.719 	198.538 	48205.7
1.255 	325.735 	198.538 	48205.7
1.265 	325.738 	198.537 	48205.7
1.275 	325.728 	198.536 	48205.9
1.285 	325.665 	198.535 	48206.2
1.295 	325.555 	198.539 	48205.9
1.305 	325.473 	198.546 	48205.6
1.315 	325.435 	198.558 	48206
1.325 	325.469 	198.586 	48207.8
1.335 	326.102 	198.66 	48212.8
1.345 	330.087 	198.795 	48215.2
1.355 	343.672 	198.811 	48201.8
1.365 	363.084 	198.669 	48198.9
1.375 	382.577 	198.556 	48195.5
1.385 	401.316 	198.509 	48205.6
1.395 	418.509 	198.5 	48211.6
1.405 	433.62 	198.491 	48207.5
1.415 	446.398 	198.483 	48199.8
1.425 	456.862 	198.499 	48203.9
1.435 	465.147 	198.528 	48212.2
1.445 	471.474 	198.535 	48210.9
1.455 	476.156 	198.519 	48200.3
1.465 	479.57 	198.516 	48199.1
1.475 	482.023 	198.539 	48210.4
1.485 	483.712 	198.554 	48214.3
1.495 	484.816 	198.535 	48203.5
1.505 	485.545 	198.514 	48196.7
1.515 	486.054 	198.528 	48204.9
1.525 	486.395 	198.555 	48214.9
1.535 	486.578 	198.549 	48210.8
1.545 	486.655 	198.521 	48197.8
1.555 	486.722 	198.518 	48198.2
1.565 	486.805 	198.547 	48212.9
1.575 	486.836 	198.56 	48215.6
1.585 	486.806 	198.534 	48201.5
1.595 	486.786 	198.513 	48195.4
1.605 	486.816 	198.531 	48206.9
1.615 	486.847 	198.557 	48216.3
1.625 	486.826 	198.543 	48208.4
1.635 	486.781 	198.511 	48195.8
1.645 	486.785 	198.515 	48199.8
1.655 	486.83 	198.546 	48214.8
1.665 	486.831 	198.55 	48214.4
1.675 	486.778 	198.519 	48198.1
1.685 	486.762 	198.505 	48195.2
1.695 	486.804 	198.532 	48210.5
1.705 	486.825 	198.555 	48217
1.715 	486.791 	198.534 	48205
1.725 	486.753 	198.505 	48194.8
1.735 	486.767 	198.516 	48202.2
1.745 	486.809 	198.548 	48215.6
1.755 	486.805 	198.547 	48213.2
1.765 	486.752 	198.515 	48197.2
1.775 	486.741 	198.506 	48196
1.785 	486.785 	198.534 	48211.6
1.795 	486.802 	198.552 	48216.3
1.805 	486.762 	198.528 	48202.6
1.815 	486.731 	198.503 	48194.6
1.825 	486.756 	198.521 	48205.1
1.835 	486.792 	198.55 	48216.3
1.845 	486.776 	198.54 	48209.9
1.855 	486.726 	198.508 	48195.3
1.865 	486.727 	198.509 	48197.8
1.875 	486.777 	198.541 	48214.5
1.885 	486.784 	198.551 	48216
1.895 	486.733 	198.521 	48199.5
1.905 	486.711 	198.5 	48194
1.915 	486.746 	198.525 	48207.6
1.925 	486.777 	198.553 	48217.1
1.935 	486.754 	198.537 	48208.1
1.945 	486.708 	198.505 	48194.9
1.955 	486.714 	198.51 	48199.1
1.965 	486.763 	198.542 	48214.8
1.975 	486.766 	198.548 	48214.6
1.985 	486.715 	198.517 	48198.3
1.995 	486.699 	198.502 	48194.9
2.005 	486.74 	198.529 	48209.9
2.015 	486.764 	198.552 	48216.9
2.025 	486.731 	198.53 	48204.7
2.035 	486.693 	198.501 	48193.9
2.045 	486.711 	198.515 	48202.3
2.055 	486.757 	198.548 	48216.6
2.065 	486.75 	198.544 	48212.5
2.075 	486.694 	198.509 	48195.5
2.085 	486.688 	198.503 	48195.5
2.095 	486.74 	198.535 	48212.9
2.105 	486.755 	198.552 	48217
2.115 	486.712 	198.525 	48201.7
2.125 	486.681 	198.498 	48193.5
2.135 	486.709 	198.517 	48204.7
2.145 	486.748 	198.549 	48216.7
2.155 	486.735 	198.54 	48210.6
2.165 	486.683 	198.506 	48195.1
2.175 	486.682 	198.504 	48196.8
2.185 	486.734 	198.537 	48213.8
2.195 	486.744 	198.549 	48216
2.205 	486.695 	198.519 	48199.5
2.215 	486.672 	198.497 	48193.6
2.225 	486.709 	198.522 	48207.6
2.235 	486.741 	198.55 	48217.3
2.245 	486.715 	198.533 	48206.9
2.255 	486.669 	198.499 	48193.6
2.265 	486.679 	198.507 	48199.3
2.275 	486.732 	198.542 	48215.8
2.285 	486.733 	198.545 	48214.7
2.295 	486.677 	198.511 	48196.7
2.305 	486.662 	198.496 	48193.6
2.315 	486.709 	198.526 	48210.1
2.325 	486.734 	198.55 	48217.3
2.335 	486.699 	198.527 	48204.3
2.345 	486.66 	198.496 	48193.1
2.355 	486.678 	198.509 	48201.4
2.365 	486.726 	198.543 	48216.2
2.375 	486.721 	198.54 	48212.6
2.385 	486.664 	198.505 	48195.1
2.395 	486.657 	198.497 	48194.7
2.405 	486.71 	198.53 	48212.6
2.415 	486.727 	198.548 	48216.8
2.425 	486.681 	198.519 	48200.6
2.435 	486.651 	198.492 	48192.3
2.445 	486.683 	198.514 	48205
2.455 	486.725 	198.547 	48217.4
2.465 	486.707 	198.534 	48209.5
2.475 	486.652 	198.497 	48193
2.485 	486.654 	198.498 	48195.8
2.495 	486.713 	198.534 	48214.5
2.505 	486.722 	198.545 	48216.2
2.515 	486.668 	198.512 	48198.2
2.525 	486.645 	198.489 	48192.1
2.535 	486.685 	198.515 	48206.9
2.545 	486.72 	198.545 	48217.2
2.555 	486.694 	198.527 	48206.8
2.565 	486.646 	198.492 	48192.4
2.575 	486.655 	198.499 	48197.9
2.585 	486.711 	198.536 	48215.4
2.595 	486.713 	198.539 	48214.4
2.605 	486.654 	198.503 	48195.4
2.615 	486.639 	198.487 	48192.3
2.625 	486.689 	198.519 	48209.9
2.635 	486.716 	198.544 	48217.4
2.645 	486.676 	198.517 	48202.6
2.655 	486.635 	198.484 	48190.9
2.665 	486.658 	198.501 	48201
2.675 	486.71 	198.538 	48216.6
2.685 	486.701 	198.532 	48211.6
2.695 	486.64 	198.492 	48192.8
2.705 	486.635 	198.485 	48192.8
2.715 	486.693 	198.521 	48212
2.725 	486.711 	198.54 	48216.6
2.735 	486.663 	198.508 	48199.5
2.745 	486.63 	198.479 	48190.3
2.755 	486.662 	198.5 	48203
2.765 	486.706 	198.535 	48216.3
2.775 	486.69 	198.522 	48208.6
2.785 	486.633 	198.483 	48191.4
2.795 	486.634 	198.483 	48194
2.805 	486.694 	198.52 	48213.2
2.815 	486.704 	198.531 	48214.9
2.825 	486.647 	198.494 	48195.6
2.835 	486.622 	198.47 	48189.3
2.845 	486.667 	198.499 	48205.9
2.855 	486.704 	198.53 	48216.5
2.865 	486.672 	198.507 	48203.6
2.875 	486.622 	198.468 	48188.8
2.885 	486.635 	198.477 	48195.7
2.895 	486.695 	198.516 	48214.2
2.905 	486.696 	198.517 	48212.3
2.915 	486.63 	198.475 	48191.5
2.925 	486.615 	198.458 	48188.2
2.935 	486.669 	198.491 	48207.2
2.945 	486.698 	198.517 	48215.1
2.955 	486.655 	198.487 	48199
2.965 	486.611 	198.449 	48186.4
2.975 	486.633 	198.463 	48196.2
2.985 	486.688 	198.501 	48212.9
2.995 	486.68 	198.493 	48207.9
3.005 	486.614 	198.449 	48187.5
3.015 	486.606 	198.437 	48186.9
3.025 	486.667 	198.473 	48207.2
3.035 	486.687 	198.49 	48211.9
3.045 	486.631 	198.452 	48192
3.055 	486.596 	198.417 	48182.5
3.065 	486.632 	198.438 	48196.8
3.075 	486.68 	198.472 	48210.8
3.085 	486.655 	198.451 	48199.9
3.095 	486.592 	198.402 	48180.9
3.105 	486.596 	198.4 	48184.4
3.115 	486.663 	198.438 	48205.6
3.125 	486.671 	198.441 	48205.9
3.135 	486.599 	198.392 	48182.2
3.145 	486.574 	198.36 	48176
3.155 	486.624 	198.387 	48194.2
3.165 	486.662 	198.414 	48205.1
3.175 	486.619 	198.379 	48188.3
3.185 	486.564 	198.326 	48172
3.195 	486.574 	198.327 	48177.9
3.205 	486.637 	198.361 	48197.5
3.215 	486.636 	198.352 	48194.6
3.225 	486.56 	198.297 	48170.4
3.235 	486.543 	198.265 	48166
3.245 	486.592 	198.286 	48183.1
3.255 	486.624 	198.301 	48191.7
3.265 	486.573 	198.256 	48172.6
3.275 	486.524 	198.201 	48158.7
3.285 	486.535 	198.196 	48164.5
3.295 	486.588 	198.217 	48180.9
3.305 	486.578 	198.193 	48174.4
3.315 	486.502 	198.129 	48151.2
3.325 	486.491 	198.094 	48148.3
3.335 	486.532 	198.103 	48162.8
3.345 	486.554 	198.099 	48168
3.355 	486.488 	198.038 	48145.1
3.365 	486.45 	197.976 	48134.4
3.375 	486.461 	197.961 	48139.3
3.385 	486.502 	197.961 	48151.7
3.395 	486.474 	197.913 	48138.8
3.405 	486.404 	197.836 	48117.7
3.415 	486.394 	197.79 	48115.2
3.425 	486.419 	197.777 	48124.8
3.435 	486.429 	197.741 	48125.2
3.445 	486.346 	197.656 	48097.6
3.455 	486.319 	197.578 	48089
3.465 	486.321 	197.538 	48089.8
3.475 	486.348 	197.503 	48097.7
3.485 	486.291 	197.415 	48076.7
3.495 	486.215 	197.301 	48054.8
3.505 	486.203 	197.22 	48050.4
3.515 	486.218 	197.167 	48055
3.525 	486.218 	197.082 	48051
3.535 	486.092 	196.934 	48010.1
3.545 	486.052 	196.798 	47997.1
3.555 	486.041 	196.711 	47995.1
3.565 	486.062 	196.623 	48002.2
3.575 	485.958 	196.448 	47960.1
3.585 	485.84 	196.236 	47923
3.595 	485.805 	196.084 	47914.3
3.605 	485.82 	195.97 	47921.3
3.615 	485.8 	195.772 	47901
3.625 	485.551 	195.463 	47824.2
3.635 	485.463 	195.194 	47801.1
3.645 	485.465 	195.015 	47797.9
3.655 	485.515 	194.8 	47802
3.665 	485.167 	194.381 	47692.9
3.675 	484.955 	193.926 	47629.3
3.685 	484.947 	193.614 	47613.6
3.695 	484.993 	193.289 	47624.3
3.705 	484.694 	192.649 	47529.1
3.715 	484.194 	191.835 	47365.9
3.725 	483.988 	191.009 	47287.7
3.735 	483.523 	189.72 	47163.1
3.745 	482.759 	187.138 	46920
3.755 	481.132 	180.791 	46267.3
3.765 	475.202 	161.051 	44030.5
3.775 	446.484 	104.963 	35391.8
3.785 	414.014 	37.4961 	28076.5
3.795 	403.737 	9.93771 	25815.6
3.805 	400.912 	2.43986 	25199
3.815 	400.217 	0.582692 	25047.4
3.825 	400.051 	0.138126 	25011.2
3.835 	400.012 	0.0326968 	25002.7
3.845 	400.003 	0.00773752 	25000.6
3.855 	400.001 	0.00183087 	25000.1
3.865 	400 	0.000433197 	25000
3.875 	400 	0.000102495 	25000
3.885 	400 	2.42502e-05 	25000
3.895 	400 	5.73755e-06 	25000
3.905 	400 	1.35751e-06 	25000
3.915 	400 	3.21201e-07 	25000
3.925 	400 	7.60154e-08 	25000
3.935 	400 	1.80062e-08 	25000
3.945 	400 	4.2814e-09 	25000
3.955 	400 	1.03287e-09 	25000
3.965 	400 	2.63257e-10 	25000
3.975 	400 	8.22616e-11 	25000
3.985 	400 	3.76562e-11 	25000
3.995 	400 	2.75376e-11 	25000
4.005 	400 	2.42806e-11 	25000
4.015 	400 	2.30074e-11 	25000
4.025 	400 	2.32382e-11 	25000
4.035 	400 	2.49608e-11 	25000
4.045 	400 	2.41876e-11 	25000
4.055 	400 	2.65402e-11 	25000
4.065 	400 	2.56297e-11 	25000
4.075 	400 	2.79921e-11 	25000
4.085 	400 	2.62555e-11 	25000
4.095 	400 	2.75682e-11 	25000
4.105 	400 	2.89367e-11 	25000
4.115 	400 	3.03958e-11 	25000
4.125 	400 	2.9142e-11 	25000
4.135 	400 	3.14044e-11 	25000
4.145 	400 	3.19457e-11 	25000
4.155 	400 	2.85694e-11 	25000
4.165 	400 	3.03281e-11 	25000
4.175 	400 	2.93999e-11 	25000
4.185 	400 	2.99841e-11 	25000
4.195 	400 	3.08066e-11 	25000
4.205 	400 	3.02444e-11 	25000
4.215 	400 	2.91037e-11 	25000
4.225 	400 	2.85764e-11 	25000
4.235 	400 	2.66028e-11 	25000
4.245 	400 	2.71881e-11 	25000
4.255 	400 	2.4439e-11 	25000
4.265 	400 	2.73817e-11 	25000
4.275 	400 	2.52795e-11 	25000
4.285 	400 	2.84033e-11 	25000
4.295 	400 	2.56089e-11 	25000
4.305 	400 	2.61877e-11 	25000
4.315 	400 	2.52924e-11 	25000
4.325 	400 	2.51914e-11 	25000
4.335 	400 	2.4036e-11 	25000
4.345 	400 	2.72576e-11 	25000
4.355 	400 	2.68785e-11 	25000
4.365 	400 	2.55297e-11 	25000
4.375 	400 	2.33713e-11 	25000
4.385 	400 	2.38086e-11 	25000
4.395 	400 	2.29394e-11 	25000
4.405 	400 	1.9532e-11 	25000
4.415 	400 	1.98493e-11 	25000
4.425 	400 	2.11586e-11 	25000
4.435 	400 	2.08063e-11 	25000
4.445 	400 	2.18948e-11 	25000
4.455 	400 	2.17352e-11 	25000
4.465 	400 	2.41897e-11 	25000
4.475 	400 	2.20834e-11 	25000
4.485 	400 	2.08906e-11 	25000
4.495 	400 	1.95864e-11 	25000
4.505 	400 	2.30753e-11 	25000
4.515 	400 	2.19881e-11 	25000
4.525 	400 	2.10565e-11 	25000
4.535 	400 	2.03091e-11 	25000
4.545 	400 	1.88268e-11 	25000
4.555 	400 	1.73215e-11 	25000
4.565 	400 	1.82948e-11 	25000
4.575 	400 	1.9716e-11 	25000
4.585 	400 	1.88216e-11 	25000
4.595 	400 	2.15114e-11 	25000
4.605 	400 	2.03507e-11 	25000
4.615 	400 	2.00844e-11 	25000
4.625 	400 	2.10257e-11 	25000
4.635 	400 	2.32985e-11 	25000
4.645 	400 	2.35008e-11 	25000
4.655 	400 	2.39786e-11 	25000
4.665 	400 	2.42577e-11 	25000
4.675 	400 	2.64303e-11 	25000
4.685 	400 	2.59041e-11 	25000
4.695 	400 	2.5777e-11 	25000
4.705 	400 	2.45559e-11 	25000
4.715 	400 	2.67864e-11 	25000
4.725 	400 	2.56597e-11 	25000
4.735 	400 	2.36955e-11 	25000
4.745 	400 	2.11162e-11 	25000
4.755 	400 	2.23509e-11 	25000
4.765 	400 	2.07314e-11 	25000
4.775 	400 	2.0912e-11 	25000
4.785 	400 	2.12815e-11 	25000
4.795 	400 	2.20991e-11 	25000
4.805 	400 	2.30274e-11 	25000
4.815 	400 	2.21697e-11 	25000
4.825 	400 	2.21351e-11 	25000
4.835 	400 	2.35159e-11 	25000
4.845 	400 	2.52955e-11 	25000
4.855 	400 	2.38927e-11 	25000
4.865 	400 	2.32792e-11 	25000
4.875 	400 	2.12727e-11 	25000
4.885 	400 	2.36001e-11 	25000
4.895 	400 	2.07198e-11 	25000
4.905 	400 	2.19171e-11 	25000
4.915 	400 	2.13678e-11 	25000
4.925 	400 	2.37852e-11 	25000
4.935 	400 	2.31279e-11 	25000
4.945 	400 	2.54325e-11 	25000
4.955 	400 	2.50012e-11 	25000
4.965 	400 	3.02152e-11 	25000
4.975 	400 	2.79135e-11 	25000
4.985 	400 	2.94141e-11 	25000
4.995 	400 	2.73999e-11 	25000
